1.000000 0.068111
2.000000 0.141117
3.000000 0.105631
4.000000 0.054125
5.000000 0.070529
6.000000 0.073452
7.000000 0.062235
8.000000 0.102192
9.000000 0.088964
10.000000 0.135494
11.000000 0.083111
12.000000 0.125050
13.000000 0.085634
14.000000 0.058978
15.000000 0.025341
16.000000 0.093082
17.000000 0.107921
18.000000 0.020336
19.000000 0.061564
20.000000 0.088209
21.000000 0.096741
22.000000 0.046883
23.000000 0.106634
24.000000 0.074158
25.000000 0.039144
26.000000 0.037631
27.000000 0.062481
28.000000 0.071105
29.000000 0.071996
30.000000 0.057319
31.000000 0.059354
32.000000 0.032144
33.000000 0.063664
34.000000 0.026089
35.000000 0.069781
36.000000 0.030376
37.000000 0.059861
38.000000 0.109369
39.000000 0.079867
40.000000 0.076881
41.000000 0.044752
42.000000 0.124983
43.000000 0.056800
44.000000 0.056917
45.000000 0.081449
46.000000 0.195964
47.000000 0.055397
48.000000 0.205337
49.000000 0.121042
50.000000 0.097004
51.000000 0.064997
52.000000 0.079311
53.000000 0.148337
54.000000 0.103415
55.000000 0.172113
56.000000 0.128172
57.000000 0.131913
58.000000 0.102831
59.000000 0.046252
60.000000 0.191150
61.000000 0.188166
62.000000 0.073785
63.000000 0.087122
64.000000 0.079019
65.000000 0.048407
66.000000 0.219799
67.000000 0.208834
68.000000 0.202227
69.000000 0.163173
70.000000 0.192338
71.000000 0.061464
72.000000 0.096417
73.000000 0.180913
74.000000 0.205872
75.000000 0.065364
76.000000 0.057654
77.000000 0.094115
78.000000 0.047904
79.000000 0.129370
80.000000 0.140084
81.000000 0.049455
82.000000 0.085131
83.000000 0.123352
84.000000 0.032727
85.000000 0.036042
86.000000 0.088044
87.000000 0.132895
88.000000 0.095686
89.000000 0.060555
90.000000 0.147854
91.000000 0.026332
92.000000 0.084098
93.000000 0.046254
94.000000 0.176553
95.000000 0.061203
96.000000 0.145737
97.000000 0.078978
98.000000 0.056181
99.000000 0.050383
100.000000 0.060624
101.000000 0.078735
102.000000 0.254355
103.000000 0.043809
104.000000 0.132942
105.000000 0.155146
106.000000 0.072816
107.000000 0.100089
108.000000 0.057406
109.000000 0.049590
110.000000 0.085479
111.000000 0.090751
112.000000 0.039320
113.000000 0.090421
114.000000 0.058113
115.000000 0.107515
116.000000 0.126692
117.000000 0.084179
118.000000 0.107824
119.000000 0.074849
120.000000 0.065067
121.000000 0.042445
122.000000 0.050151
123.000000 0.046347
124.000000 0.077548
125.000000 0.140512
126.000000 0.045415
127.000000 0.076252
128.000000 0.141687
129.000000 0.118437
130.000000 0.102285
131.000000 0.050736
132.000000 0.099294
133.000000 0.116942
134.000000 0.032389
135.000000 0.061056
136.000000 0.140013
137.000000 0.064476
138.000000 0.041690
139.000000 0.047356
140.000000 0.217168
141.000000 0.119728
142.000000 0.060118
143.000000 0.042772
144.000000 0.107382
145.000000 0.073138
146.000000 0.086528
147.000000 0.071952
148.000000 0.040664
149.000000 0.293597
150.000000 0.070974
151.000000 0.070612
152.000000 0.153203
153.000000 0.055076
154.000000 0.037652
155.000000 0.036724
156.000000 0.059037
157.000000 0.043105
158.000000 0.023367
159.000000 0.072820
160.000000 0.062469
161.000000 0.172577
162.000000 0.033065
163.000000 0.258729
164.000000 0.048817
165.000000 0.041759
166.000000 0.092277
167.000000 0.062251
168.000000 0.056375
169.000000 0.127426
170.000000 0.168157
171.000000 0.068648
172.000000 0.112086
173.000000 0.215578
174.000000 0.325702
175.000000 0.116969
176.000000 0.057897
177.000000 0.078809
178.000000 0.053475
179.000000 0.110100
180.000000 0.065701
181.000000 0.023280
182.000000 0.103070
183.000000 0.112712
184.000000 0.082294
185.000000 0.082631
186.000000 0.107694
187.000000 0.136123
188.000000 0.173549
189.000000 0.129116
190.000000 0.107335
191.000000 0.221903
192.000000 0.141834
193.000000 0.076281
194.000000 0.072846
195.000000 0.180547
196.000000 0.103179
197.000000 0.087526
198.000000 0.566242
199.000000 0.216014
200.000000 0.072802
201.000000 0.182320
202.000000 0.124045
203.000000 0.129002
204.000000 0.117842
205.000000 0.130898
206.000000 0.026654
207.000000 0.046435
208.000000 0.051821
209.000000 0.146768
210.000000 0.062556
211.000000 0.051081
212.000000 0.050896
213.000000 0.029722
214.000000 0.095623
215.000000 0.153534
216.000000 0.063302
217.000000 0.111015
218.000000 0.025460
219.000000 0.088085
220.000000 0.082296
221.000000 0.301102
222.000000 0.102007
223.000000 0.069682
224.000000 0.082084
225.000000 0.177276
226.000000 0.094290
227.000000 0.039525
228.000000 0.069414
229.000000 0.108046
230.000000 0.076420
231.000000 0.227439
232.000000 0.130200
233.000000 0.093926
234.000000 0.159040
235.000000 0.050935
236.000000 0.025607
237.000000 0.340751
238.000000 0.019840
239.000000 0.065198
240.000000 0.164647
241.000000 0.069396
242.000000 0.021960
243.000000 0.099708
244.000000 0.092465
245.000000 0.072668
246.000000 0.021184
247.000000 0.063251
248.000000 0.081702
249.000000 0.041107
250.000000 0.093487
251.000000 0.080190
252.000000 0.076754
253.000000 0.073169
254.000000 0.038159
255.000000 0.110085
256.000000 0.071128
257.000000 0.046287
258.000000 0.123467
259.000000 0.052890
260.000000 0.085776
261.000000 0.076300
262.000000 0.054052
263.000000 0.077211
264.000000 0.076286
265.000000 0.143516
266.000000 0.057729
267.000000 0.050952
268.000000 0.029204
269.000000 0.042495
270.000000 0.117280
271.000000 0.046955
272.000000 0.138769
273.000000 0.116805
274.000000 0.035810
275.000000 0.090513
276.000000 0.055771
277.000000 0.060160
278.000000 0.061122
279.000000 0.054924
280.000000 0.125072
281.000000 0.074319
282.000000 0.086195
283.000000 0.031390
284.000000 0.118764
285.000000 0.060057
286.000000 0.069829
287.000000 0.090267
288.000000 0.038967
289.000000 0.104733
290.000000 0.187406
291.000000 0.081093
292.000000 0.139587
293.000000 0.109473
294.000000 0.038274
295.000000 0.070024
296.000000 0.080342
297.000000 0.089841
298.000000 0.087502
299.000000 0.106276
300.000000 0.096915
301.000000 0.095520
302.000000 0.142241
303.000000 0.024660
304.000000 0.095151
305.000000 0.066209
306.000000 0.103371
307.000000 0.078018
308.000000 0.050200
309.000000 0.134707
310.000000 0.082416
311.000000 0.103846
312.000000 0.075535
313.000000 0.088613
314.000000 0.076194
315.000000 0.141566
316.000000 0.155678
317.000000 0.095592
318.000000 0.060120
319.000000 0.131109
320.000000 0.162917
321.000000 0.095844
322.000000 0.178597
323.000000 0.084617
324.000000 0.083747
325.000000 0.038001
326.000000 0.111520
327.000000 0.067298
328.000000 0.063768
329.000000 0.083353
330.000000 0.132036
331.000000 0.090792
332.000000 0.055687
333.000000 0.094212
334.000000 0.124278
335.000000 0.095142
336.000000 0.039998
337.000000 0.033386
338.000000 0.070878
339.000000 0.071832
340.000000 0.056852
341.000000 0.081893
342.000000 0.146023
343.000000 0.353170
344.000000 0.060839
345.000000 0.079707
346.000000 0.097717
347.000000 0.119241
348.000000 0.057744
349.000000 0.059975
350.000000 0.035192
351.000000 0.084137
352.000000 0.082959
353.000000 0.066771
354.000000 0.086314
355.000000 0.036792
356.000000 0.119115
357.000000 0.043475
358.000000 0.120232
359.000000 0.065033
360.000000 0.074233
361.000000 0.072005
362.000000 0.062584
363.000000 0.097848
364.000000 0.068738
365.000000 0.055856
366.000000 0.085317
367.000000 0.060159
368.000000 0.082511
369.000000 0.049794
370.000000 0.094510
371.000000 0.068650
372.000000 0.086773
373.000000 0.048583
374.000000 0.115756
375.000000 0.123790
376.000000 0.019644
377.000000 0.069296
378.000000 0.109571
379.000000 0.099802
380.000000 0.103547
381.000000 0.056276
382.000000 0.090979
383.000000 0.168873
384.000000 0.215922
385.000000 0.126940
386.000000 0.048649
387.000000 0.118520
388.000000 0.069728
