1 0.145724
2 0.111064
3 0.127624
4 0.308639
5 0.111406
6 0.173790
7 0.098886
8 0.071516
9 0.090778
10 0.064803
11 0.082591
12 0.106677
13 0.028279
14 0.196027
15 0.090863
16 0.064700
17 0.184072
18 0.052986
19 0.176407
20 0.065427
21 0.063718
22 0.091633
23 0.045663
24 0.061751
25 0.081748
26 0.160688
27 0.035972
28 0.067314
29 0.047630
30 0.076850
31 0.126645
32 0.084148
33 0.069138
34 0.077552
35 0.106074
36 0.167090
37 0.164685
38 0.127026
39 0.083218
40 0.044081
41 0.144230
42 0.190278
43 0.360922
44 0.085946
45 0.203479
46 0.073571
47 0.122433
48 0.144260
49 0.108264
50 0.100196
51 0.129607
52 0.177828
53 0.261386
54 0.145114
55 0.208075
56 0.248121
57 0.130289
58 0.083217
59 0.071777
60 0.172892
61 0.197515
62 0.241622
63 0.170830
64 0.425355
65 0.054833
66 0.062947
67 0.136273
68 0.103920
69 0.089208
70 0.081681
71 0.069682
72 0.190967
73 0.102352
74 0.087432
75 0.096454
76 0.109313
77 0.041456
78 0.175189
79 0.039021
80 0.133846
81 0.098675
82 0.199411
83 0.106040
84 0.096351
85 0.080231
86 0.060480
87 0.139000
88 0.040643
89 0.217580
90 0.119133
91 0.067051
92 0.136318
93 0.063007
94 0.119047
95 0.065726
96 0.228735
97 0.037699
98 0.072379
99 0.079091
100 0.079732
101 0.036674
102 0.051522
103 0.064507
104 0.123834
105 0.159369
106 0.111470
107 0.066381
108 0.038286
109 0.093914
110 0.153600
111 0.107108
112 0.166881
113 0.115439
114 0.063480
115 0.061044
116 0.082606
117 0.060843
118 0.091393
119 0.038010
120 0.093968
121 0.071986
122 0.062942
123 0.108982
124 0.128562
125 0.143381
126 0.096885
127 0.050514
128 0.077105
129 0.075117
130 0.100703
131 0.057351
132 0.185388
133 0.067706
134 0.063918
135 0.075834
136 0.112250
137 0.096358
138 0.101425
139 0.157978
140 0.060005
141 0.112545
142 0.093837
143 0.115987
144 0.049429
145 0.051297
146 0.284083
147 0.085682
148 0.057057
149 0.085192
150 0.138137
151 0.066368
152 0.115219
153 0.084422
154 0.134216
155 0.042641
156 0.129418
157 0.058910
158 0.152821
159 0.074322
160 0.115651
161 0.050047
162 0.056683
163 0.042362
164 0.154624
165 0.157601
166 0.114760
167 0.045853
168 0.068571
169 0.079948
170 0.168066
171 0.148965
172 0.041697
173 0.596274
174 0.169593
175 0.115151
176 0.046375
177 0.206634
178 0.058904
179 0.100389
180 0.206991
181 0.115807
182 0.154248
183 0.049643
184 0.280648
185 0.233787
186 0.102271
187 0.062000
188 0.076790
189 0.054190
190 0.102017
191 0.106874
192 0.049315
193 0.116364
194 0.127251
195 0.121620
196 0.079178
197 0.131836
198 0.060686
199 0.167329
200 0.120279
201 0.132491
202 0.094624
203 0.076499
204 0.053888
205 0.188990
206 0.089428
207 0.110170
208 0.110964
209 0.328328
210 0.155116
211 0.093338
212 0.167338
213 0.864223
214 0.152497
215 0.165496
216 0.127469
217 0.135830
218 0.064016
219 0.027183
220 0.086450
221 0.111527
222 0.089391
223 0.093865
224 0.048566
225 0.098525
226 0.085130
227 0.044588
228 0.080454
229 0.036251
230 0.092031
231 0.109815
232 0.061379
233 0.104141
234 0.076656
235 0.105535
236 0.064833
237 0.116660
238 0.081789
239 0.048165
240 0.030602
241 0.082078
242 0.046615
243 0.095424
244 0.078366
245 0.026777
246 0.124245
247 0.074494
248 0.085729
249 0.063537
250 0.091148
251 0.077670
252 0.070269
253 0.109748
254 0.103674
255 0.071725
256 0.108841
257 0.071937
258 0.089623
259 0.099227
260 0.124182
261 0.125302
262 0.033056
263 0.035727
264 0.233285
265 0.156279
266 0.126235
267 0.076907
268 0.104110
269 0.105590
270 0.077572
271 0.127894
272 0.099735
273 0.097620
274 0.066981
275 0.128307
276 0.115570
277 0.150989
278 0.056044
279 0.078639
280 0.088065
281 0.045522
282 0.254556
283 0.321364
284 0.226443
285 0.141334
286 0.132177
287 0.076162
288 0.089808
289 0.079143
290 0.121001
291 0.091345
292 0.078845
293 0.083501
294 0.047053
295 0.096207
296 0.068350
297 0.091156
298 0.099430
299 0.044173
300 0.058532
301 0.115630
302 0.065404
303 0.175099
304 0.080528
305 0.018694
306 0.098027
307 0.085046
308 0.065737
309 0.082004
310 0.062266
311 0.083518
312 0.725397
313 0.147954
314 0.052747
315 0.156324
316 0.087844
317 0.135888
318 0.037341
319 0.068348
320 0.073216
321 0.046280
322 0.087336
323 0.044286
324 0.049406
325 0.081527
326 0.077340
327 0.039359
328 0.176998
329 0.096596
330 0.054001
331 0.080651
332 0.065516
333 0.082698
334 0.092265
335 0.066349
336 0.123563
337 0.037647
338 0.071602
339 0.108568
340 0.050907
341 0.153284
342 0.089729
343 0.090474
344 0.080255
345 0.060019
346 0.085068
347 0.159485
348 0.113504
349 0.082291
350 0.065318
351 0.059242
352 0.086859
353 0.066828
354 0.194029
355 0.046565
356 0.089029
357 0.108483
358 0.043713
359 0.159918
360 0.099950
361 0.177371
362 0.117365
363 0.085087
364 0.122164
365 0.145785
366 0.079191
